Sensor Model:   CX-1010-CD-BF0.1
Serial Number:	X157536
Data Format:    4      (Log Ohms/Kelvin)
SetPoint Limit: 325.0      (Kelvin)
Temperature coefficient:  1 (Negative)
Number of Breakpoints:   180

No.   Units      Temperature (K)

1	1.46507	308
2	1.46993	302
3	1.47404	297
4	1.47862	291.5
5	1.48328	286
6	1.48802	280.5
7	1.49285	275
8	1.49777	269.5
9	1.50280	264
10	1.50792	258.5
11	1.51316	253
12	1.51852	247.5
13	1.52400	242
14	1.52960	236.5
15	1.53534	231
16	1.54122	225.5
17	1.54725	220
18	1.55286	215
19	1.55859	210
20	1.56446	205
21	1.57047	200
22	1.57662	195
23	1.58292	190
24	1.58938	185
25	1.59599	180
26	1.60276	175
27	1.60970	170
28	1.61682	165
29	1.62412	160
30	1.63162	155
31	1.63931	150
32	1.64641	145.5
33	1.65369	141
34	1.66115	136.5
35	1.66880	132
36	1.67666	127.5
37	1.68474	123
38	1.69305	118.5
39	1.70160	114
40	1.70943	110
41	1.71748	106
42	1.72576	102
43	1.73214	99
44	1.73758	96.5
45	1.74313	94
46	1.74879	91.5
47	1.75458	89
48	1.76050	86.5
49	1.76656	84
50	1.77276	81.5
51	1.77913	79
52	1.78565	76.5
53	1.79236	74
54	1.79925	71.5
55	1.80635	69
56	1.81218	67
57	1.81815	65
58	1.82428	63
59	1.83058	61
60	1.83705	59
61	1.84370	57
62	1.85055	55
63	1.85761	53
64	1.86489	51
65	1.87241	49
66	1.87940	47.2
67	1.88661	45.4
68	1.89405	43.6
69	1.90175	41.8
70	1.91017	39.9
71	1.91797	38.2
72	1.92606	36.5
73	1.93395	34.9
74	1.94213	33.3
75	1.95062	31.7
76	1.95889	30.2
77	1.96749	28.7
78	1.97644	27.2
79	1.98516	25.8
80	1.99359	24.5
81	2.00238	23.2
82	2.01158	21.9
83	2.02048	20.7
84	2.02744	19.8
85	2.03303	19.1
86	2.03881	18.4
87	2.04479	17.7
88	2.05052	17.05
89	2.05646	16.4
90	2.06262	15.75
91	2.06852	15.15
92	2.07464	14.55
93	2.08102	13.95
94	2.08711	13.4
95	2.09346	12.85
96	2.10010	12.3
97	2.10641	11.8
98	2.11301	11.3
99	2.11994	10.8
100	2.12723	10.3
101	2.13415	9.85
102	2.14144	9.4
103	2.14914	8.95
104	2.15637	8.55
105	2.16402	8.15
106	2.17214	7.75
107	2.18077	7.35
108	2.18999	6.95
109	2.19861	6.6
110	2.20781	6.25
111	2.21825	5.88
112	2.22858	5.54
113	2.23905	5.22
114	2.24961	4.92
115	2.26100	4.62
116	2.27334	4.32
117	2.28586	4.04
118	2.29597	3.83
119	2.30521	3.65
120	2.31503	3.47
121	2.32550	3.29
122	2.33608	3.12
123	2.34741	2.95
124	2.35886	2.79
125	2.37118	2.63
126	2.38364	2.48
127	2.39713	2.33
128	2.41079	2.19
129	2.42566	2.05
130	2.44076	1.92
131	2.45732	1.79
132	2.47415	1.67
133	2.49114	1.56
134	2.50991	1.45
135	2.53082	1.34
136	2.55209	1.24
137	2.56607	1.18
138	2.57725	1.135
139	2.58908	1.09
140	2.60163	1.045
141	2.61498	1
142	2.62759	0.96
143	2.64096	0.92
144	2.65518	0.88
145	2.67034	0.84
146	2.68653	0.8
147	2.70164	0.765
148	2.71773	0.73
149	2.73489	0.695
150	2.75325	0.66
151	2.77294	0.625
152	2.79100	0.595
153	2.81027	0.565
154	2.83089	0.535
155	2.85303	0.505
156	2.87114	0.482
157	2.88780	0.462
158	2.90537	0.442
159	2.92395	0.422
160	2.94164	0.404
161	2.96683	0.38
162	2.98941	0.36
163	3.01366	0.34
164	3.03986	0.32
165	3.06837	0.3
166	3.09967	0.28
167	3.13439	0.26
168	3.17341	0.24
169	3.21794	0.22
170	3.26962	0.2
171	3.30498	0.188
172	3.34431	0.176
173	3.38829	0.164
174	3.43757	0.152
175	3.49265	0.14
176	3.59078	0.121
177	3.62865	0.114
178	3.66025	0.108
179	3.69359	0.101
180	3.69781	0.1
