Sensor Model:   CX-1010-CD-BF0.1
Serial Number:	X157535
Data Format:    4      (Log Ohms/Kelvin)
SetPoint Limit: 325.0      (Kelvin)
Temperature coefficient:  1 (Negative)
Number of Breakpoints:   180

No.   Units      Temperature (K)

1	1.46157	308
2	1.46631	302
3	1.47032	297
4	1.47482	291.5
5	1.47940	286
6	1.48407	280.5
7	1.48883	275
8	1.49369	269.5
9	1.49866	264
10	1.50373	258.5
11	1.50891	253
12	1.51422	247.5
13	1.51964	242
14	1.52520	236.5
15	1.53088	231
16	1.53671	225.5
17	1.54267	220
18	1.54823	215
19	1.55390	210
20	1.55971	205
21	1.56566	200
22	1.57174	195
23	1.57797	190
24	1.58435	185
25	1.59088	180
26	1.59758	175
27	1.60444	170
28	1.61147	165
29	1.61869	160
30	1.62609	155
31	1.63369	150
32	1.64071	145.5
33	1.64790	141
34	1.65528	136.5
35	1.66285	132
36	1.67063	127.5
37	1.67863	123
38	1.68686	118.5
39	1.69533	114
40	1.70309	110
41	1.71107	106
42	1.71930	102
43	1.72563	99
44	1.73103	96.5
45	1.73654	94
46	1.74216	91.5
47	1.74792	89
48	1.75380	86.5
49	1.75982	84
50	1.76599	81.5
51	1.77232	79
52	1.77881	76.5
53	1.78547	74
54	1.79233	71.5
55	1.79939	69
56	1.80518	67
57	1.81113	65
58	1.81722	63
59	1.82348	61
60	1.82991	59
61	1.83653	57
62	1.84334	55
63	1.85035	53
64	1.85759	51
65	1.86507	49
66	1.87201	47.2
67	1.87918	45.4
68	1.88658	43.6
69	1.89423	41.8
70	1.90260	39.9
71	1.91036	38.2
72	1.91841	36.5
73	1.92625	34.9
74	1.93439	33.3
75	1.94285	31.7
76	1.95108	30.2
77	1.95965	28.7
78	1.96858	27.2
79	1.97727	25.8
80	1.98569	24.5
81	1.99448	23.2
82	2.00368	21.9
83	2.01259	20.7
84	2.01956	19.8
85	2.02517	19.1
86	2.03097	18.4
87	2.03696	17.7
88	2.04272	17.05
89	2.04868	16.4
90	2.05487	15.75
91	2.06080	15.15
92	2.06696	14.55
93	2.07337	13.95
94	2.07950	13.4
95	2.08589	12.85
96	2.09257	12.3
97	2.09893	11.8
98	2.10557	11.3
99	2.11255	10.8
100	2.11990	10.3
101	2.12687	9.85
102	2.13421	9.4
103	2.14197	8.95
104	2.14927	8.55
105	2.15699	8.15
106	2.16517	7.75
107	2.17388	7.35
108	2.18320	6.95
109	2.19191	6.6
110	2.20121	6.25
111	2.21178	5.88
112	2.22225	5.54
113	2.23288	5.22
114	2.24361	4.92
115	2.25520	4.62
116	2.26778	4.32
117	2.28056	4.04
118	2.29090	3.83
119	2.30037	3.65
120	2.31044	3.47
121	2.32120	3.29
122	2.33209	3.12
123	2.34377	2.95
124	2.35558	2.79
125	2.36831	2.63
126	2.38120	2.48
127	2.39517	2.33
128	2.40934	2.19
129	2.42478	2.05
130	2.44046	1.92
131	2.45767	1.79
132	2.47517	1.67
133	2.49284	1.56
134	2.51237	1.45
135	2.53414	1.34
136	2.55629	1.24
137	2.57085	1.18
138	2.58250	1.135
139	2.59484	1.09
140	2.60794	1.045
141	2.62189	1
142	2.63506	0.96
143	2.64906	0.92
144	2.66396	0.88
145	2.67987	0.84
146	2.69690	0.8
147	2.71282	0.765
148	2.72980	0.73
149	2.74797	0.695
150	2.76745	0.66
151	2.78842	0.625
152	2.80771	0.595
153	2.82836	0.565
154	2.85055	0.535
155	2.87446	0.505
156	2.89409	0.482
157	2.91220	0.462
158	2.93136	0.442
159	2.95169	0.422
160	2.97108	0.404
161	2.99876	0.38
162	3.02363	0.36
163	3.05037	0.34
164	3.07928	0.32
165	3.11071	0.3
166	3.14512	0.28
167	3.18312	0.26
168	3.22553	0.24
169	3.27344	0.22
170	3.32840	0.2
171	3.36561	0.188
172	3.40669	0.176
173	3.45234	0.164
174	3.50334	0.152
175	3.56053	0.14
176	3.66510	0.121
177	3.70771	0.114
178	3.74542	0.108
179	3.78965	0.101
180	3.79587	0.1
